2929,2947,2962,2974,2987,3001,3015,3026,3022,2995,2977,2968,2963,2966,2971,2978,2983,2985,2960,2937,2929,2925,2922,2928,2931,2942,2937,2906,2874,2871,2873,2879,2888,2898,2879,2852,2840,2833,2826,2820,2813,2806,2799,2774,2772,2782,2787,2798,2813,2828,2842,2841,2818,2812,2816,2820,2827,2836,2856,2837,2819,2815,2813,2856
2978,2983,2985,2960,2937,2929,2925,2922,2928,2931,2942,2937,2906,2874,2871,2873,2879,2888,2898,2879,2852,2840,2833,2826,2820,2813,2806,2799,2774,2772,2782,2787,2798,2813,2828,2842,2841,2818,2812,2816,2820,2827,2836,2856,2837,2819,2815,2813,2813,2819,2827,2836,2826,2806,2801,2805,2808,2817,2826,2834,2815,2798,2796,2826
2873,2879,2888,2898,2879,2852,2840,2833,2826,2820,2813,2806,2799,2774,2772,2782,2787,2798,2813,2828,2842,2841,2818,2812,2816,2820,2827,2836,2856,2837,2819,2815,2813,2813,2819,2827,2836,2826,2806,2801,2805,2808,2817,2826,2834,2815,2798,2796,2795,2797,2803,2808,2797,2775,2778,2780,2785,2793,2797,2774,2766,2769,2793,2797
2782,2787,2798,2813,2828,2842,2841,2818,2812,2816,2820,2827,2836,2856,2837,2819,2815,2813,2813,2819,2827,2836,2826,2806,2801,2805,2808,2817,2826,2834,2815,2798,2796,2795,2797,2803,2808,2797,2775,2778,2780,2785,2793,2797,2774,2766,2769,2770,2773,2781,2789,2775,2759,2762,2763,2770,2779,2770,2750,2751,2755,2779,2770,2750
2819,2815,2813,2813,2819,2827,2836,2826,2806,2801,2805,2808,2817,2826,2834,2815,2798,2796,2795,2797,2803,2808,2797,2775,2778,2780,2785,2793,2797,2774,2766,2769,2770,2773,2781,2789,2775,2759,2762,2763,2770,2779,2770,2750,2751,2755,2756,2760,2769,2752,2735,2737,2739,2745,2753,2761,2738,2731,2736,2742,2761,2738,2731,2736
2815,2798,2796,2795,2797,2803,2808,2797,2775,2778,2780,2785,2793,2797,2774,2766,2769,2770,2773,2781,2789,2775,2759,2762,2763,2770,2779,2770,2750,2751,2755,2756,2760,2769,2752,2735,2737,2739,2745,2753,2761,2738,2731,2736,2742,2750,2759,2737,2728,2730,2731,2737,2748,2759,2742,2726,2728,2729,2731,2747,2726,2728,2729,2731
2766,2769,2770,2773,2781,2789,2775,2759,2762,2763,2770,2779,2770,2750,2751,2755,2756,2760,2769,2752,2735,2737,2739,2745,2753,2761,2738,2731,2736,2742,2750,2759,2737,2728,2730,2731,2737,2748,2759,2742,2726,2728,2729,2731,2747,2747,2724,2716,2720,2722,2725,2735,2742,2723,2709,2711,2711,2715,2724,2732,2711,2711,2715,2724
2755,2756,2760,2769,2752,2735,2737,2739,2745,2753,2761,2738,2731,2736,2742,2750,2759,2737,2728,2730,2731,2737,2748,2759,2742,2726,2728,2729,2731,2747,2747,2724,2716,2720,2722,2725,2735,2742,2723,2709,2711,2711,2715,2724,2732,2710,2697,2699,2705,2713,2724,2721,2696,2693,2699,2702,2711,2722,2734,2699,2702,2711,2722,2734
2761,2738,2731,2736,2742,2750,2759,2737,2728,2730,2731,2737,2748,2759,2742,2726,2728,2729,2731,2747,2747,2724,2716,2720,2722,2725,2735,2742,2723,2709,2711,2711,2715,2724,2732,2710,2697,2699,2705,2713,2724,2721,2696,2693,2699,2702,2711,2722,2734,2736,2710,2700,2704,2704,2720,2730,2740,2731,2711,2711,2714,2714,2723,2732
2747,2724,2716,2720,2722,2725,2735,2742,2723,2709,2711,2711,2715,2724,2732,2710,2697,2699,2705,2713,2724,2721,2696,2693,2699,2702,2711,2722,2734,2736,2710,2700,2704,2704,2720,2730,2740,2731,2711,2711,2714,2714,2723,2732,2738,2728,2705,2705,2707,2708,2720,2725,2688,2674,2674,2672,2677,2687,2696,2674,2672,2677,2687,2696
2711,2711,2715,2724,2732,2710,2697,2699,2705,2713,2724,2721,2696,2693,2699,2702,2711,2722,2734,2736,2710,2700,2704,2704,2720,2730,2740,2731,2711,2711,2714,2714,2723,2732,2738,2728,2705,2705,2707,2708,2720,2725,2688,2674,2674,2672,2677,2687,2696,2686,2666,2667,2673,2677,2688,2698,2710,2692,2686,2689,2695,2707,2718,2686
2702,2711,2722,2734,2736,2710,2700,2704,2704,2720,2730,2740,2731,2711,2711,2714,2714,2723,2732,2738,2728,2705,2705,2707,2708,2720,2725,2688,2674,2674,2672,2677,2687,2696,2686,2666,2667,2673,2677,2688,2698,2710,2692,2686,2689,2695,2707,2718,2729,2715,2701,2704,2706,2708,2716,2724,2724,2701,2699,2704,2710,2718,2724,2699
2714,2714,2723,2732,2738,2728,2705,2705,2707,2708,2720,2725,2688,2674,2674,2672,2677,2687,2696,2686,2666,2667,2673,2677,2688,2698,2710,2692,2686,2689,2695,2707,2718,2729,2715,2701,2704,2706,2708,2716,2724,2724,2701,2699,2704,2710,2718,2724,2702,2695,2701,2703,2711,2721,2730,2736,2713,2702,2705,2704,2721,2733,2743,2705
2672,2677,2687,2696,2686,2666,2667,2673,2677,2688,2698,2710,2692,2686,2689,2695,2707,2718,2729,2715,2701,2704,2706,2708,2716,2724,2724,2701,2699,2704,2710,2718,2724,2702,2695,2701,2703,2711,2721,2730,2736,2713,2702,2705,2704,2721,2733,2743,2732,2714,2713,2713,2713,2725,2735,2743,2748,2726,2719,2719,2720,2739,2726,2719
2695,2707,2718,2729,2715,2701,2704,2706,2708,2716,2724,2724,2701,2699,2704,2710,2718,2724,2702,2695,2701,2703,2711,2721,2730,2736,2713,2702,2705,2704,2721,2733,2743,2732,2714,2713,2713,2713,2725,2735,2743,2748,2726,2719,2719,2720,2739,2745,2749,2709,2695,2687,2672,2669,2663,2656,2642,2615,2609,2609,2618,2642,2615,2609
2710,2718,2724,2702,2695,2701,2703,2711,2721,2730,2736,2713,2702,2705,2704,2721,2733,2743,2732,2714,2713,2713,2713,2725,2735,2743,2748,2726,2719,2719,2720,2739,2745,2749,2709,2695,2687,2672,2669,2663,2656,2642,2615,2609,2609,2618,2631,2644,2658,2637,2634,2632,2633,2637,2647,2664,2683,2672,2659,2649,2664,2683,2672,2659
2721,2733,2743,2732,2714,2713,2713,2713,2725,2735,2743,2748,2726,2719,2719,2720,2739,2745,2749,2709,2695,2687,2672,2669,2663,2656,2642,2615,2609,2609,2618,2631,2644,2658,2637,2634,2632,2633,2637,2647,2664,2683,2672,2659,2649,2639,2640,2654,2678,2675,2666,2667,2667,2683,2684,2681,2646,2696,2849,2929,2681,2646,2696,2849
2720,2739,2745,2749,2709,2695,2687,2672,2669,2663,2656,2642,2615,2609,2609,2618,2631,2644,2658,2637,2634,2632,2633,2637,2647,2664,2683,2672,2659,2649,2639,2640,2654,2678,2675,2666,2667,2667,2683,2684,2681,2646,2696,2849,2929,2956,2999,3023,3050,3065,3066,3058,3053,3042,2977,2967,2959,2955,2961,2977,2967,2959,2955,2961
2618,2631,2644,2658,2637,2634,2632,2633,2637,2647,2664,2683,2672,2659,2649,2639,2640,2654,2678,2675,2666,2667,2667,2683,2684,2681,2646,2696,2849,2929,2956,2999,3023,3050,3065,3066,3058,3053,3042,2977,2967,2959,2955,2961,2933,2900,2895,2901,2907,2914,2918,2888,2873,2869,2864,2876,2885,2866,2806,2864,2876,2885,2866,2806
2639,2640,2654,2678,2675,2666,2667,2667,2683,2684,2681,2646,2696,2849,2929,2956,2999,3023,3050,3065,3066,3058,3053,3042,2977,2967,2959,2955,2961,2933,2900,2895,2901,2907,2914,2918,2888,2873,2869,2864,2876,2885,2866,2806,2783,2761,2736,2722,2717,2683,2669,2680,2737,2772,2763,2737,2735,2727,2719,2720,2737,2735,2727,2719
2956,2999,3023,3050,3065,3066,3058,3053,3042,2977,2967,2959,2955,2961,2933,2900,2895,2901,2907,2914,2918,2888,2873,2869,2864,2876,2885,2866,2806,2783,2761,2736,2722,2717,2683,2669,2680,2737,2772,2763,2737,2735,2727,2719,2720,2711,2660,2614,2582,2556,2556,2571,2557,2553,2570,2595,2624,2656,2666,2570,2595,2624,2656,2666
2967,2959,2955,2961,2933,2900,2895,2901,2907,2914,2918,2888,2873,2869,2864,2876,2885,2866,2806,2783,2761,2736,2722,2717,2683,2669,2680,2737,2772,2763,2737,2735,2727,2719,2720,2711,2660,2614,2582,2556,2556,2571,2557,2553,2570,2595,2624,2656,2666,2651,2657,2673,2688,2697,2696,2672,2667,2692,2738,2771,2740,2729,2730,2735
2876,2885,2866,2806,2783,2761,2736,2722,2717,2683,2669,2680,2737,2772,2763,2737,2735,2727,2719,2720,2711,2660,2614,2582,2556,2556,2571,2557,2553,2570,2595,2624,2656,2666,2651,2657,2673,2688,2697,2696,2672,2667,2692,2738,2771,2740,2729,2730,2735,2740,2739,2726,2730,2752,2768,2778,2787,2772,2751,2764,2772,2785,2759,2751
2737,2735,2727,2719,2720,2711,2660,2614,2582,2556,2556,2571,2557,2553,2570,2595,2624,2656,2666,2651,2657,2673,2688,2697,2696,2672,2667,2692,2738,2771,2740,2729,2730,2735,2740,2739,2726,2730,2752,2768,2778,2787,2772,2751,2764,2772,2785,2759,2721,2715,2710,2702,2699,2667,2650,2652,2652,2666,2689,2681,2673,2681,2666,2689
2595,2624,2656,2666,2651,2657,2673,2688,2697,2696,2672,2667,2692,2738,2771,2740,2729,2730,2735,2740,2739,2726,2730,2752,2768,2778,2787,2772,2751,2764,2772,2785,2759,2721,2715,2710,2702,2699,2667,2650,2652,2652,2666,2689,2681,2673,2681,2696,2697,2668,2655,2664,2668,2673,2667,2626,2599,2592,2591,2593,2575,2561,2592,2591
2740,2729,2730,2735,2740,2739,2726,2730,2752,2768,2778,2787,2772,2751,2764,2772,2785,2759,2721,2715,2710,2702,2699,2667,2650,2652,2652,2666,2689,2681,2673,2681,2696,2697,2668,2655,2664,2668,2673,2667,2626,2599,2592,2591,2593,2575,2561,2582,2610,2641,2662,2650,2631,2631,2636,2649,2652,2630,2626,2627,2630,2652,2630,2626
2772,2785,2759,2721,2715,2710,2702,2699,2667,2650,2652,2652,2666,2689,2681,2673,2681,2696,2697,2668,2655,2664,2668,2673,2667,2626,2599,2592,2591,2593,2575,2561,2582,2610,2641,2662,2650,2631,2631,2636,2649,2652,2630,2626,2627,2630,2608,2588,2590,2593,2599,2605,2609,2625,2647,2661,2676,2668,2650,2656,2661,2676,2668,2650
2673,2681,2696,2697,2668,2655,2664,2668,2673,2667,2626,2599,2592,2591,2593,2575,2561,2582,2610,2641,2662,2650,2631,2631,2636,2649,2652,2630,2626,2627,2630,2608,2588,2590,2593,2599,2605,2609,2625,2647,2661,2676,2668,2650,2656,2666,2664,2639,2612,2612,2615,2625,2606,2602,2627,2667,2713,2736,2735,2627,2667,2713,2736,2735
2575,2561,2582,2610,2641,2662,2650,2631,2631,2636,2649,2652,2630,2626,2627,2630,2608,2588,2590,2593,2599,2605,2609,2625,2647,2661,2676,2668,2650,2656,2666,2664,2639,2612,2612,2615,2625,2606,2602,2627,2667,2713,2736,2735,2749,2770,2785,2770,2723,2702,2695,2673,2626,2591,2590,2592,2593,2603,2628,2652,2592,2593,2603,2628
2630,2608,2588,2590,2593,2599,2605,2609,2625,2647,2661,2676,2668,2650,2656,2666,2664,2639,2612,2612,2615,2625,2606,2602,2627,2667,2713,2736,2735,2749,2770,2785,2770,2723,2702,2695,2673,2626,2591,2590,2592,2593,2603,2628,2652,2679,2709,2737,2749,2752,2828,2899,3012,3080,3123,3191,3216,3212,3205,3123,3191,3216,3212,3205
2666,2664,2639,2612,2612,2615,2625,2606,2602,2627,2667,2713,2736,2735,2749,2770,2785,2770,2723,2702,2695,2673,2626,2591,2590,2592,2593,2603,2628,2652,2679,2709,2737,2749,2752,2828,2899,3012,3080,3123,3191,3216,3212,3205,3187,3146,3097,3052,3010,2977,2970,2969,2957,2956,2942,2940,2938,2912,2908,2942,2940,2938,2912,2908
2667,2713,2736,2735,2749,2770,2785,2770,2723,2702,2695,2673,2626,2591,2590,2592,2593,2603,2628,2652,2679,2709,2737,2749,2752,2828,2899,3012,3080,3123,3191,3216,3212,3205,3187,3146,3097,3052,3010,2977,2970,2969,2957,2956,2942,2940,2938,2912,2908,2913,2919,2885,2845,2803,2771,2733,2692,2687,2694,2706,2693,2693,2719,2694
2592,2593,2603,2628,2652,2679,2709,2737,2749,2752,2828,2899,3012,3080,3123,3191,3216,3212,3205,3187,3146,3097,3052,3010,2977,2970,2969,2957,2956,2942,2940,2938,2912,2908,2913,2919,2885,2845,2803,2771,2733,2692,2687,2694,2706,2693,2693,2719,2746,2766,2746,2746,2747,2744,2741,2691,2680,2679,2674,2664,2640,2664,2689,2674
3191,3216,3212,3205,3187,3146,3097,3052,3010,2977,2970,2969,2957,2956,2942,2940,2938,2912,2908,2913,2919,2885,2845,2803,2771,2733,2692,2687,2694,2706,2693,2693,2719,2746,2766,2746,2746,2747,2744,2741,2691,2680,2679,2674,2664,2640,2664,2689,2705,2698,2694,2719,2748,2779,2793,2816,2821,2821,2793,2788,2795,2798,2778,2793
2940,2938,2912,2908,2913,2919,2885,2845,2803,2771,2733,2692,2687,2694,2706,2693,2693,2719,2746,2766,2746,2746,2747,2744,2741,2691,2680,2679,2674,2664,2640,2664,2689,2705,2698,2694,2719,2748,2779,2793,2816,2821,2821,2793,2788,2795,2798,2778,2751,2755,2772,2862,2934,2981,3022,3074,3142,3237,3288,3319,3356,3372,3365,3288
2693,2693,2719,2746,2766,2746,2746,2747,2744,2741,2691,2680,2679,2674,2664,2640,2664,2689,2705,2698,2694,2719,2748,2779,2793,2816,2821,2821,2793,2788,2795,2798,2778,2751,2755,2772,2862,2934,2981,3022,3074,3142,3237,3288,3319,3356,3372,3365,3363,3383,3402,3429,3459,3487,3508,3518,3477,3508,3493,3483,3473,3464,3456,3493
2640,2664,2689,2705,2698,2694,2719,2748,2779,2793,2816,2821,2821,2793,2788,2795,2798,2778,2751,2755,2772,2862,2934,2981,3022,3074,3142,3237,3288,3319,3356,3372,3365,3363,3383,3402,3429,3459,3487,3508,3518,3477,3508,3493,3483,3473,3464,3456,3434,3443,3448,3442,3458,3474,3460,3417,3368,3327,3317,3264,3219,3192,3327,3317
2795,2798,2778,2751,2755,2772,2862,2934,2981,3022,3074,3142,3237,3288,3319,3356,3372,3365,3363,3383,3402,3429,3459,3487,3508,3518,3477,3508,3493,3483,3473,3464,3456,3434,3443,3448,3442,3458,3474,3460,3417,3368,3327,3317,3264,3219,3192,3171,3150,3123,3123,3137,3150,3144,3139,3131,3104,3043,2887,2845,2813,2732,3043,2887
3402,3429,3459,3487,3508,3518,3477,3508,3493,3483,3473,3464,3456,3434,3443,3448,3442,3458,3474,3460,3417,3368,3327,3317,3264,3219,3192,3171,3150,3123,3123,3137,3150,3144,3139,3131,3104,3043,2887,2845,2813,2732,2674,2661,2650,2646,2642,2672,2708,2764,2785,2780,2809,2849,2863,2835,2820,2819,2827,2863,2835,2820,2819,2827
3473,3464,3456,3434,3443,3448,3442,3458,3474,3460,3417,3368,3327,3317,3264,3219,3192,3171,3150,3123,3123,3137,3150,3144,3139,3131,3104,3043,2887,2845,2813,2732,2674,2661,2650,2646,2642,2672,2708,2764,2785,2780,2809,2849,2863,2835,2820,2819,2827,2809,2804,2813,2824,2827,2828,2850,2896,2948,2991,3017,3077,3062,3032,2991
3219,3192,3171,3150,3123,3123,3137,3150,3144,3139,3131,3104,3043,2887,2845,2813,2732,2674,2661,2650,2646,2642,2672,2708,2764,2785,2780,2809,2849,2863,2835,2820,2819,2827,2809,2804,2813,2824,2827,2828,2850,2896,2948,2991,3017,3077,3062,3032,3033,3048,3072,3080,3073,3074,3074,3076,3073,3095,3135,3173,3186,3191,3207,3135
2813,2732,2674,2661,2650,2646,2642,2672,2708,2764,2785,2780,2809,2849,2863,2835,2820,2819,2827,2809,2804,2813,2824,2827,2828,2850,2896,2948,2991,3017,3077,3062,3032,3033,3048,3072,3080,3073,3074,3074,3076,3073,3095,3135,3173,3186,3191,3207,3230,3253,3258,3257,3255,3239,3231,3210,3214,3211,3182,3132,3109,3119,3155,3182
2835,2820,2819,2827,2809,2804,2813,2824,2827,2828,2850,2896,2948,2991,3017,3077,3062,3032,3033,3048,3072,3080,3073,3074,3074,3076,3073,3095,3135,3173,3186,3191,3207,3230,3253,3258,3257,3255,3239,3231,3210,3214,3211,3182,3132,3109,3119,3155,3135,3134,3142,3158,3160,3173,3196,3215,3229,3211,3193,3182,3162,3118,3102,3193
3077,3062,3032,3033,3048,3072,3080,3073,3074,3074,3076,3073,3095,3135,3173,3186,3191,3207,3230,3253,3258,3257,3255,3239,3231,3210,3214,3211,3182,3132,3109,3119,3155,3135,3134,3142,3158,3160,3173,3196,3215,3229,3211,3193,3182,3162,3118,3102,3095,3088,3061,3052,3048,3050,3038,3029,3046,3067,3090,3082,3092,3115,3067,3090
3186,3191,3207,3230,3253,3258,3257,3255,3239,3231,3210,3214,3211,3182,3132,3109,3119,3155,3135,3134,3142,3158,3160,3173,3196,3215,3229,3211,3193,3182,3162,3118,3102,3095,3088,3061,3052,3048,3050,3038,3029,3046,3067,3090,3082,3092,3115,3139,3118,3088,3088,3062,3006,2952,2964,2920,2818,2766,2766,2763,2723,2700,2695,2766
3109,3119,3155,3135,3134,3142,3158,3160,3173,3196,3215,3229,3211,3193,3182,3162,3118,3102,3095,3088,3061,3052,3048,3050,3038,3029,3046,3067,3090,3082,3092,3115,3139,3118,3088,3088,3062,3006,2952,2964,2920,2818,2766,2766,2763,2723,2700,2695,2699,2690,2673,2685,2702,2709,2687,2689,2704,2706,2681,2663,2663,2683,2706,2681
3162,3118,3102,3095,3088,3061,3052,3048,3050,3038,3029,3046,3067,3090,3082,3092,3115,3139,3118,3088,3088,3062,3006,2952,2964,2920,2818,2766,2766,2763,2723,2700,2695,2699,2690,2673,2685,2702,2709,2687,2689,2704,2706,2681,2663,2663,2683,2698,2696,2711,2726,2741,2735,2740,2759,2750,2757,2787,2816,2831,2825,2757,2787,2816
3092,3115,3139,3118,3088,3088,3062,3006,2952,2964,2920,2818,2766,2766,2763,2723,2700,2695,2699,2690,2673,2685,2702,2709,2687,2689,2704,2706,2681,2663,2663,2683,2698,2696,2711,2726,2741,2735,2740,2759,2750,2757,2787,2816,2831,2825,2837,2851,2859,2857,2864,2885,2906,2911,2907,2919,2928,2944,2952,2972,2992,3009,3006,2952
2723,2700,2695,2699,2690,2673,2685,2702,2709,2687,2689,2704,2706,2681,2663,2663,2683,2698,2696,2711,2726,2741,2735,2740,2759,2750,2757,2787,2816,2831,2825,2837,2851,2859,2857,2864,2885,2906,2911,2907,2919,2928,2944,2952,2972,2992,3009,3006,2993,3004,3009,3002,3004,3003,2989,2945,2929,2934,2948,2937,2929,2933,2934,2948
2663,2683,2698,2696,2711,2726,2741,2735,2740,2759,2750,2757,2787,2816,2831,2825,2837,2851,2859,2857,2864,2885,2906,2911,2907,2919,2928,2944,2952,2972,2992,3009,3006,2993,3004,3009,3002,3004,3003,2989,2945,2929,2934,2948,2937,2929,2933,2934,2912,2875,2872,2872,2863,2821,2798,2787,2779,2746,2736,2780,2788,2759,2746,2736
2825,2837,2851,2859,2857,2864,2885,2906,2911,2907,2919,2928,2944,2952,2972,2992,3009,3006,2993,3004,3009,3002,3004,3003,2989,2945,2929,2934,2948,2937,2929,2933,2934,2912,2875,2872,2872,2863,2821,2798,2787,2779,2746,2736,2780,2788,2759,2750,2744,2735,2706,2693,2706,2721,2720,2690,2693,2708,2724,2756,2788,2815,2708,2724
2992,3009,3006,2993,3004,3009,3002,3004,3003,2989,2945,2929,2934,2948,2937,2929,2933,2934,2912,2875,2872,2872,2863,2821,2798,2787,2779,2746,2736,2780,2788,2759,2750,2744,2735,2706,2693,2706,2721,2720,2690,2693,2708,2724,2756,2788,2815,2818,2793,2788,2789,2792,2779,2781,2796,2803,2801,2793,2817,2854,2887,2896,2793,2817
2929,2933,2934,2912,2875,2872,2872,2863,2821,2798,2787,2779,2746,2736,2780,2788,2759,2750,2744,2735,2706,2693,2706,2721,2720,2690,2693,2708,2724,2756,2788,2815,2818,2793,2788,2789,2792,2779,2781,2796,2803,2801,2793,2817,2854,2887,2896,2902,2906,2898,2879,2859,2860,2866,2853,2845,2847,2845,2826,2812,2826,2847,2845,2826
2788,2759,2750,2744,2735,2706,2693,2706,2721,2720,2690,2693,2708,2724,2756,2788,2815,2818,2793,2788,2789,2792,2779,2781,2796,2803,2801,2793,2817,2854,2887,2896,2902,2906,2898,2879,2859,2860,2866,2853,2845,2847,2845,2826,2812,2826,2848,2853,2840,2834,2822,2809,2778,2756,2759,2760,2750,2713,2704,2736,2760,2750,2713,2704
2788,2815,2818,2793,2788,2789,2792,2779,2781,2796,2803,2801,2793,2817,2854,2887,2896,2902,2906,2898,2879,2859,2860,2866,2853,2845,2847,2845,2826,2812,2826,2848,2853,2840,2834,2822,2809,2778,2756,2759,2760,2750,2713,2704,2736,2741,2746,2759,2759,2746,2714,2702,2701,2699,2680,2664,2661,2654,2643,2611,2664,2661,2654,2643
2887,2896,2902,2906,2898,2879,2859,2860,2866,2853,2845,2847,2845,2826,2812,2826,2848,2853,2840,2834,2822,2809,2778,2756,2759,2760,2750,2713,2704,2736,2741,2746,2759,2759,2746,2714,2702,2701,2699,2680,2664,2661,2654,2643,2611,2611,2618,2631,2627,2621,2608,2597,2587,2566,2558,2557,2556,2537,2513,2544,2557,2556,2537,2513
2826,2848,2853,2840,2834,2822,2809,2778,2756,2759,2760,2750,2713,2704,2736,2741,2746,2759,2759,2746,2714,2702,2701,2699,2680,2664,2661,2654,2643,2611,2611,2618,2631,2627,2621,2608,2597,2587,2566,2558,2557,2556,2537,2513,2544,2551,2550,2573,2605,2627,2602,2568,2563,2561,2558,2537,2526,2525,2514,2509,2537,2526,2525,2514
2741,2746,2759,2759,2746,2714,2702,2701,2699,2680,2664,2661,2654,2643,2611,2611,2618,2631,2627,2621,2608,2597,2587,2566,2558,2557,2556,2537,2513,2544,2551,2550,2573,2605,2627,2602,2568,2563,2561,2558,2537,2526,2525,2514,2509,2492,2513,2540,2566,2578,2576,2567,2557,2547,2519,2511,2513,2510,2499,2474,2477,2513,2510,2499
2611,2618,2631,2627,2621,2608,2597,2587,2566,2558,2557,2556,2537,2513,2544,2551,2550,2573,2605,2627,2602,2568,2563,2561,2558,2537,2526,2525,2514,2509,2492,2513,2540,2566,2578,2576,2567,2557,2547,2519,2511,2513,2510,2499,2474,2477,2482,2490,2496,2504,2506,2492,2465,2469,2476,2482,2484,2463,2457,2455,2464,2484,2463,2457
2551,2550,2573,2605,2627,2602,2568,2563,2561,2558,2537,2526,2525,2514,2509,2492,2513,2540,2566,2578,2576,2567,2557,2547,2519,2511,2513,2510,2499,2474,2477,2482,2490,2496,2504,2506,2492,2465,2469,2476,2482,2484,2463,2457,2455,2464,2459,2474,2507,2536,2549,2521,2508,2503,2500,2490,2477,2486,2484,2477,2458,2477,2486,2484
2492,2513,2540,2566,2578,2576,2567,2557,2547,2519,2511,2513,2510,2499,2474,2477,2482,2490,2496,2504,2506,2492,2465,2469,2476,2482,2484,2463,2457,2455,2464,2459,2474,2507,2536,2549,2521,2508,2503,2500,2490,2477,2486,2484,2477,2458,2451,2469,2477,2467,2475,2471,2461,2457,2443,2450,2457,2466,2452,2437,2439,2457,2466,2452
2477,2482,2490,2496,2504,2506,2492,2465,2469,2476,2482,2484,2463,2457,2455,2464,2459,2474,2507,2536,2549,2521,2508,2503,2500,2490,2477,2486,2484,2477,2458,2451,2469,2477,2467,2475,2471,2461,2457,2443,2450,2457,2466,2452,2437,2439,2440,2442,2435,2449,2469,2483,2464,2441,2445,2452,2460,2460,2458,2454,2452,2460,2460,2458
2464,2459,2474,2507,2536,2549,2521,2508,2503,2500,2490,2477,2486,2484,2477,2458,2451,2469,2477,2467,2475,2471,2461,2457,2443,2450,2457,2466,2452,2437,2439,2440,2442,2435,2449,2469,2483,2464,2441,2445,2452,2460,2460,2458,2454,2454,2439,2442,2457,2467,2470,2454,2456,2449,2450,2448,2449,2465,2473,2450,2448,2449,2465,2473
2458,2451,2469,2477,2467,2475,2471,2461,2457,2443,2450,2457,2466,2452,2437,2439,2440,2442,2435,2449,2469,2483,2464,2441,2445,2452,2460,2460,2458,2454,2454,2439,2442,2457,2467,2470,2454,2456,2449,2450,2448,2449,2465,2473,2450,2443,2446,2455,2483,2493,2524,2550,2540,2526,2504,2507,2509,2508,2502,2504,2507,2509,2508,2502
2439,2440,2442,2435,2449,2469,2483,2464,2441,2445,2452,2460,2460,2458,2454,2454,2439,2442,2457,2467,2470,2454,2456,2449,2450,2448,2449,2465,2473,2450,2443,2446,2455,2483,2493,2524,2550,2540,2526,2504,2507,2509,2508,2502,2489,2489,2494,2488,2487,2498,2498,2503,2484,2474,2473,2476,2487,2477,2472,2473,2476,2487,2477,2472
2452,2460,2460,2458,2454,2454,2439,2442,2457,2467,2470,2454,2456,2449,2450,2448,2449,2465,2473,2450,2443,2446,2455,2483,2493,2524,2550,2540,2526,2504,2507,2509,2508,2502,2489,2489,2494,2488,2487,2498,2498,2503,2484,2474,2473,2476,2487,2477,2472,2467,2464,2461,2468,2524,2628,2670,2679,2691,2683,2684,2689,2672,2671,2683
2443,2446,2455,2483,2493,2524,2550,2540,2526,2504,2507,2509,2508,2502,2489,2489,2494,2488,2487,2498,2498,2503,2484,2474,2473,2476,2487,2477,2472,2467,2464,2461,2468,2524,2628,2670,2679,2691,2683,2684,2689,2672,2671,2672,2664,2649,2627,2630,2641,2656,2677,2691,2714,2701,2672,2649,2650,2647,2642,2619,2649,2650,2647,2642
2489,2494,2488,2487,2498,2498,2503,2484,2474,2473,2476,2487,2477,2472,2467,2464,2461,2468,2524,2628,2670,2679,2691,2683,2684,2689,2672,2671,2672,2664,2649,2627,2630,2641,2656,2677,2691,2714,2701,2672,2649,2650,2647,2642,2619,2599,2606,2626,2660,2692,2712,2730,2734,2713,2681,2658,2654,2649,2644,2681,2658,2654,2649,2644
2464,2461,2468,2524,2628,2670,2679,2691,2683,2684,2689,2672,2671,2672,2664,2649,2627,2630,2641,2656,2677,2691,2714,2701,2672,2649,2650,2647,2642,2619,2599,2606,2626,2660,2692,2712,2730,2734,2713,2681,2658,2654,2649,2644,2616,2601,2601,2597,2600,2588,2590,2611,2610,2601,2572,2552,2547,2543,2522,2572,2552,2547,2543,2522
2689,2672,2671,2672,2664,2649,2627,2630,2641,2656,2677,2691,2714,2701,2672,2649,2650,2647,2642,2619,2599,2606,2626,2660,2692,2712,2730,2734,2713,2681,2658,2654,2649,2644,2616,2601,2601,2597,2600,2588,2590,2611,2610,2601,2572,2552,2547,2543,2522,2511,2511,2506,2508,2494,2499,2524,2558,2599,2605,2587,2626,2664,2694,2605
2649,2650,2647,2642,2619,2599,2606,2626,2660,2692,2712,2730,2734,2713,2681,2658,2654,2649,2644,2616,2601,2601,2597,2600,2588,2590,2611,2610,2601,2572,2552,2547,2543,2522,2511,2511,2506,2508,2494,2499,2524,2558,2599,2605,2587,2626,2664,2694,2700,2691,2688,2686,2684,2679,2695,2769,2856,2901,2895,2861,2874,2998,3135,2895
2658,2654,2649,2644,2616,2601,2601,2597,2600,2588,2590,2611,2610,2601,2572,2552,2547,2543,2522,2511,2511,2506,2508,2494,2499,2524,2558,2599,2605,2587,2626,2664,2694,2700,2691,2688,2686,2684,2679,2695,2769,2856,2901,2895,2861,2874,2998,3135,3178,3237,3264,3294,3318,3330,3348,3391,3418,3435,3454,3470,3488,3506,3435,3454
