2779,2766,2771,2775,2782,2790,2797,2804,2811,2818,2814,2793,2786,2786,2785,2788,2794,2798,2804,2813,2818,2794,2779,2776,2771,2769,2771,2773,2777,2779,2784,2777,2757,2752,2754,2758,2765,2772,2778,2784,2791,2790,2764,2757,2756,2756,2759,2765,2771,2777,2782,2789,2791,2769,2759,2758,2757,2760,2767,2759,2758,2757,2760,2767
2788,2794,2798,2804,2813,2818,2794,2779,2776,2771,2769,2771,2773,2777,2779,2784,2777,2757,2752,2754,2758,2765,2772,2778,2784,2791,2790,2764,2757,2756,2756,2759,2765,2771,2777,2782,2789,2791,2769,2759,2758,2757,2760,2767,2770,2777,2784,2777,2760,2759,2762,2765,2773,2781,2792,2800,2809,2810,2791,2784,2800,2809,2810,2791
2784,2777,2757,2752,2754,2758,2765,2772,2778,2784,2791,2790,2764,2757,2756,2756,2759,2765,2771,2777,2782,2789,2791,2769,2759,2758,2757,2760,2767,2770,2777,2784,2777,2760,2759,2762,2765,2773,2781,2792,2800,2809,2810,2791,2784,2785,2785,2788,2793,2799,2802,2809,2813,2816,2794,2783,2778,2776,2779,2794,2783,2778,2776,2779
2791,2790,2764,2757,2756,2756,2759,2765,2771,2777,2782,2789,2791,2769,2759,2758,2757,2760,2767,2770,2777,2784,2777,2760,2759,2762,2765,2773,2781,2792,2800,2809,2810,2791,2784,2785,2785,2788,2793,2799,2802,2809,2813,2816,2794,2783,2778,2776,2779,2781,2783,2788,2793,2790,2767,2760,2763,2761,2760,2766,2770,2776,2784,2760
2758,2757,2760,2767,2770,2777,2784,2777,2760,2759,2762,2765,2773,2781,2792,2800,2809,2810,2791,2784,2785,2785,2788,2793,2799,2802,2809,2813,2816,2794,2783,2778,2776,2779,2781,2783,2788,2793,2790,2767,2760,2763,2761,2760,2766,2770,2776,2784,2791,2760,2753,2755,2756,2759,2764,2771,2777,2782,2789,2790,2766,2759,2757,2789
2800,2809,2810,2791,2784,2785,2785,2788,2793,2799,2802,2809,2813,2816,2794,2783,2778,2776,2779,2781,2783,2788,2793,2790,2767,2760,2763,2761,2760,2766,2770,2776,2784,2791,2760,2753,2755,2756,2759,2764,2771,2777,2782,2789,2790,2766,2759,2757,2739,2767,2789,2801,2819,2810,2792,2767,2749,2732,2718,2716,2727,2739,2732,2718
2783,2778,2776,2779,2781,2783,2788,2793,2790,2767,2760,2763,2761,2760,2766,2770,2776,2784,2791,2760,2753,2755,2756,2759,2764,2771,2777,2782,2789,2790,2766,2759,2757,2739,2767,2789,2801,2819,2810,2792,2767,2749,2732,2718,2716,2727,2739,2743,2722,2691,2686,2683,2686,2688,2696,2698,2704,2709,2698,2694,2697,2713,2709,2698
2770,2776,2784,2791,2760,2753,2755,2756,2759,2764,2771,2777,2782,2789,2790,2766,2759,2757,2739,2767,2789,2801,2819,2810,2792,2767,2749,2732,2718,2716,2727,2739,2743,2722,2691,2686,2683,2686,2688,2696,2698,2704,2709,2698,2694,2697,2713,2738,2734,2725,2734,2743,2746,2755,2741,2737,2743,2749,2752,2756,2750,2735,2749,2752
2766,2759,2757,2739,2767,2789,2801,2819,2810,2792,2767,2749,2732,2718,2716,2727,2739,2743,2722,2691,2686,2683,2686,2688,2696,2698,2704,2709,2698,2694,2697,2713,2738,2734,2725,2734,2743,2746,2755,2741,2737,2743,2749,2752,2756,2750,2735,2734,2739,2740,2744,2747,2734,2727,2740,2742,2747,2739,2718,2713,2711,2747,2739,2718
2727,2739,2743,2722,2691,2686,2683,2686,2688,2696,2698,2704,2709,2698,2694,2697,2713,2738,2734,2725,2734,2743,2746,2755,2741,2737,2743,2749,2752,2756,2750,2735,2734,2739,2740,2744,2747,2734,2727,2740,2742,2747,2739,2718,2713,2711,2710,2711,2717,2701,2687,2686,2687,2686,2686,2659,2650,2652,2652,2652,2653,2650,2652,2652
2697,2713,2738,2734,2725,2734,2743,2746,2755,2741,2737,2743,2749,2752,2756,2750,2735,2734,2739,2740,2744,2747,2734,2727,2740,2742,2747,2739,2718,2713,2711,2710,2711,2717,2701,2687,2686,2687,2686,2686,2659,2650,2652,2652,2652,2653,2647,2629,2631,2635,2634,2637,2641,2624,2618,2625,2629,2633,2640,2635,2625,2634,2633,2640
2750,2735,2734,2739,2740,2744,2747,2734,2727,2740,2742,2747,2739,2718,2713,2711,2710,2711,2717,2701,2687,2686,2687,2686,2686,2659,2650,2652,2652,2652,2653,2647,2629,2631,2635,2634,2637,2641,2624,2618,2625,2629,2633,2640,2635,2625,2634,2640,2643,2650,2650,2640,2644,2652,2662,2665,2653,2657,2664,2666,2671,2653,2657,2664
2711,2710,2711,2717,2701,2687,2686,2687,2686,2686,2659,2650,2652,2652,2652,2653,2647,2629,2631,2635,2634,2637,2641,2624,2618,2625,2629,2633,2640,2635,2625,2634,2640,2643,2650,2650,2640,2644,2652,2662,2665,2653,2657,2664,2666,2671,2673,2662,2665,2671,2672,2676,2676,2665,2673,2673,2675,2674,2665,2667,2673,2675,2674,2665
2653,2647,2629,2631,2635,2634,2637,2641,2624,2618,2625,2629,2633,2640,2635,2625,2634,2640,2643,2650,2650,2640,2644,2652,2662,2665,2653,2657,2664,2666,2671,2673,2662,2665,2671,2672,2676,2676,2665,2673,2673,2675,2674,2665,2667,2672,2673,2674,2677,2664,2663,2668,2668,2670,2671,2657,2652,2653,2652,2671,2657,2652,2653,2652
2625,2629,2633,2640,2635,2625,2634,2640,2643,2650,2650,2640,2644,2652,2662,2665,2653,2657,2664,2666,2671,2673,2662,2665,2671,2672,2676,2676,2665,2673,2673,2675,2674,2665,2667,2672,2673,2674,2677,2664,2663,2668,2668,2670,2671,2657,2652,2653,2652,2655,2644,2630,2634,2634,2632,2635,2634,2617,2614,2619,2618,2622,2625,2614
2665,2653,2657,2664,2666,2671,2673,2662,2665,2671,2672,2676,2676,2665,2673,2673,2675,2674,2665,2667,2672,2673,2674,2677,2664,2663,2668,2668,2670,2671,2657,2652,2653,2652,2655,2644,2630,2634,2634,2632,2635,2634,2617,2614,2619,2618,2622,2625,2612,2617,2623,2625,2631,2638,2642,2633,2639,2645,2649,2654,2660,2661,2645,2649
2673,2675,2674,2665,2667,2672,2673,2674,2677,2664,2663,2668,2668,2670,2671,2657,2652,2653,2652,2655,2644,2630,2634,2634,2632,2635,2634,2617,2614,2619,2618,2622,2625,2612,2617,2623,2625,2631,2638,2642,2633,2639,2645,2649,2654,2660,2661,2658,2657,2663,2664,2668,2671,2669,2661,2663,2662,2661,2661,2665,2659,2649,2661,2661
2657,2652,2653,2652,2655,2644,2630,2634,2634,2632,2635,2634,2617,2614,2619,2618,2622,2625,2612,2617,2623,2625,2631,2638,2642,2633,2639,2645,2649,2654,2660,2661,2658,2657,2663,2664,2668,2671,2669,2661,2663,2662,2661,2661,2665,2659,2649,2649,2649,2647,2650,2650,2633,2621,2619,2615,2612,2613,2614,2615,2617,2612,2613,2614
2618,2622,2625,2612,2617,2623,2625,2631,2638,2642,2633,2639,2645,2649,2654,2660,2661,2658,2657,2663,2664,2668,2671,2669,2661,2663,2662,2661,2661,2665,2659,2649,2649,2649,2647,2650,2650,2633,2621,2619,2615,2612,2613,2614,2615,2617,2600,2589,2592,2591,2591,2592,2597,2601,2605,2590,2584,2588,2589,2591,2590,2584,2588,2589
2660,2661,2658,2657,2663,2664,2668,2671,2669,2661,2663,2662,2661,2661,2665,2659,2649,2649,2649,2647,2650,2650,2633,2621,2619,2615,2612,2613,2614,2615,2617,2600,2589,2592,2591,2591,2592,2597,2601,2605,2590,2584,2588,2589,2591,2596,2600,2605,2608,2608,2597,2600,2607,2607,2614,2621,2625,2636,2626,2626,2621,2625,2636,2626
2659,2649,2649,2649,2647,2650,2650,2633,2621,2619,2615,2612,2613,2614,2615,2617,2600,2589,2592,2591,2591,2592,2597,2601,2605,2590,2584,2588,2589,2591,2596,2600,2605,2608,2608,2597,2600,2607,2607,2614,2621,2625,2636,2626,2626,2632,2634,2640,2646,2649,2654,2659,2660,2649,2652,2653,2654,2657,2662,2663,2665,2654,2657,2662
2617,2600,2589,2592,2591,2591,2592,2597,2601,2605,2590,2584,2588,2589,2591,2596,2600,2605,2608,2608,2597,2600,2607,2607,2614,2621,2625,2636,2626,2626,2632,2634,2640,2646,2649,2654,2659,2660,2649,2652,2653,2654,2657,2662,2663,2665,2668,2665,2654,2656,2656,2658,2661,2663,2664,2665,2657,2647,2646,2646,2644,2657,2647,2646
2596,2600,2605,2608,2608,2597,2600,2607,2607,2614,2621,2625,2636,2626,2626,2632,2634,2640,2646,2649,2654,2659,2660,2649,2652,2653,2654,2657,2662,2663,2665,2668,2665,2654,2656,2656,2658,2661,2663,2664,2665,2657,2647,2646,2646,2644,2644,2646,2645,2648,2650,2603,2606,2620,2660,2710,2743,2773,2798,2826,2824,2743,2773,2798
2632,2634,2640,2646,2649,2654,2659,2660,2649,2652,2653,2654,2657,2662,2663,2665,2668,2665,2654,2656,2656,2658,2661,2663,2664,2665,2657,2647,2646,2646,2644,2644,2646,2645,2648,2650,2603,2606,2620,2660,2710,2743,2773,2798,2826,2824,2847,2874,2866,2863,2871,2881,2880,2857,2872,2884,2903,2917,2920,2920,2930,2903,2917,2920
2665,2668,2665,2654,2656,2656,2658,2661,2663,2664,2665,2657,2647,2646,2646,2644,2644,2646,2645,2648,2650,2603,2606,2620,2660,2710,2743,2773,2798,2826,2824,2847,2874,2866,2863,2871,2881,2880,2857,2872,2884,2903,2917,2920,2920,2930,2945,2960,2966,2975,2987,2987,2962,2957,2965,2965,2974,2984,2987,2984,3003,2974,2984,2987
2644,2644,2646,2645,2648,2650,2603,2606,2620,2660,2710,2743,2773,2798,2826,2824,2847,2874,2866,2863,2871,2881,2880,2857,2872,2884,2903,2917,2920,2920,2930,2945,2960,2966,2975,2987,2987,2962,2957,2965,2965,2974,2984,2987,2984,3003,3021,3036,3065,3100,3127,3115,3099,3095,3094,3096,3098,3075,3063,3057,3096,3098,3075,3063
2824,2847,2874,2866,2863,2871,2881,2880,2857,2872,2884,2903,2917,2920,2920,2930,2945,2960,2966,2975,2987,2987,2962,2957,2965,2965,2974,2984,2987,2984,3003,3021,3036,3065,3100,3127,3115,3099,3095,3094,3096,3098,3075,3063,3057,3061,3073,3096,3127,3117,3104,3107,3125,3156,3181,3176,3134,3103,3101,3093,3176,3134,3103,3101
2930,2945,2960,2966,2975,2987,2987,2962,2957,2965,2965,2974,2984,2987,2984,3003,3021,3036,3065,3100,3127,3115,3099,3095,3094,3096,3098,3075,3063,3057,3061,3073,3096,3127,3117,3104,3107,3125,3156,3181,3176,3134,3103,3101,3093,3093,3101,3079,3055,3055,3064,3079,3107,3121,3092,3073,3082,3126,3142,3116,3073,3082,3126,3142
3003,3021,3036,3065,3100,3127,3115,3099,3095,3094,3096,3098,3075,3063,3057,3061,3073,3096,3127,3117,3104,3107,3125,3156,3181,3176,3134,3103,3101,3093,3093,3101,3079,3055,3055,3064,3079,3107,3121,3092,3073,3082,3126,3142,3116,3075,3064,3070,3073,3081,3075,3050,3042,3059,3076,3105,3129,3104,3083,3128,3105,3129,3104,3083
3061,3073,3096,3127,3117,3104,3107,3125,3156,3181,3176,3134,3103,3101,3093,3093,3101,3079,3055,3055,3064,3079,3107,3121,3092,3073,3082,3126,3142,3116,3075,3064,3070,3073,3081,3075,3050,3042,3059,3076,3105,3129,3104,3083,3128,3149,3155,3124,3098,3090,3094,3098,3107,3090,3070,3072,3094,3117,3147,3070,3072,3094,3117,3147
3093,3101,3079,3055,3055,3064,3079,3107,3121,3092,3073,3082,3126,3142,3116,3075,3064,3070,3073,3081,3075,3050,3042,3059,3076,3105,3129,3104,3083,3128,3149,3155,3124,3098,3090,3094,3098,3107,3090,3070,3072,3094,3117,3147,3127,3124,3130,3139,3153,3141,3101,3087,3091,3093,3103,3095,3068,3064,3074,3086,3095,3068,3064,3074
3075,3064,3070,3073,3081,3075,3050,3042,3059,3076,3105,3129,3104,3083,3128,3149,3155,3124,3098,3090,3094,3098,3107,3090,3070,3072,3094,3117,3147,3127,3124,3130,3139,3153,3141,3101,3087,3091,3093,3103,3095,3068,3064,3074,3086,3097,3100,3085,3100,3140,3159,3158,3126,3121,3130,3131,3137,3119,3083,3070,3131,3137,3119,3083
3149,3155,3124,3098,3090,3094,3098,3107,3090,3070,3072,3094,3117,3147,3127,3124,3130,3139,3153,3141,3101,3087,3091,3093,3103,3095,3068,3064,3074,3086,3097,3100,3085,3100,3140,3159,3158,3126,3121,3130,3131,3137,3119,3083,3070,3078,3083,3092,3083,3074,3101,3126,3155,3149,3128,3130,3145,3158,3172,3128,3130,3145,3158,3172
3124,3130,3139,3153,3141,3101,3087,3091,3093,3103,3095,3068,3064,3074,3086,3097,3100,3085,3100,3140,3159,3158,3126,3121,3130,3131,3137,3119,3083,3070,3078,3083,3092,3083,3074,3101,3126,3155,3149,3128,3130,3145,3158,3172,3161,3131,3127,3136,3141,3140,3096,3064,3064,3066,3072,3051,3051,3072,3087,3072,3051,3051,3072,3087
3095,3068,3064,3074,3086,3097,3100,3085,3100,3140,3159,3158,3126,3121,3130,3131,3137,3119,3083,3070,3078,3083,3092,3083,3074,3101,3126,3155,3149,3128,3130,3145,3158,3172,3161,3131,3127,3136,3141,3140,3096,3064,3064,3066,3072,3051,3051,3072,3087,3106,3116,3109,3119,3137,3152,3164,3140,3122,3130,3129,3124,3089,3076,3130
3131,3137,3119,3083,3070,3078,3083,3092,3083,3074,3101,3126,3155,3149,3128,3130,3145,3158,3172,3161,3131,3127,3136,3141,3140,3096,3064,3064,3066,3072,3051,3051,3072,3087,3106,3116,3109,3119,3137,3152,3164,3140,3122,3130,3129,3124,3089,3076,3087,3094,3107,3105,3093,3108,3138,3168,3190,3171,3160,3185,3203,3194,3171,3160
3130,3145,3158,3172,3161,3131,3127,3136,3141,3140,3096,3064,3064,3066,3072,3051,3051,3072,3087,3106,3116,3109,3119,3137,3152,3164,3140,3122,3130,3129,3124,3089,3076,3087,3094,3107,3105,3093,3108,3138,3168,3190,3171,3160,3185,3203,3194,3152,3150,3149,3146,3145,3118,3110,3125,3144,3166,3165,3162,3206,3223,3166,3165,3162
3051,3051,3072,3087,3106,3116,3109,3119,3137,3152,3164,3140,3122,3130,3129,3124,3089,3076,3087,3094,3107,3105,3093,3108,3138,3168,3190,3171,3160,3185,3203,3194,3152,3150,3149,3146,3145,3118,3110,3125,3144,3166,3165,3162,3206,3223,3223,3188,3177,3194,3202,3189,3134,3094,3093,3095,3099,3075,3051,3064,3095,3099,3075,3051
3124,3089,3076,3087,3094,3107,3105,3093,3108,3138,3168,3190,3171,3160,3185,3203,3194,3152,3150,3149,3146,3145,3118,3110,3125,3144,3166,3165,3162,3206,3223,3223,3188,3177,3194,3202,3189,3134,3094,3093,3095,3099,3075,3051,3064,3084,3104,3113,3094,3118,3129,3131,3091,3086,3093,3084,3072,3025,2993,3093,3084,3072,3025,2993
3203,3194,3152,3150,3149,3146,3145,3118,3110,3125,3144,3166,3165,3162,3206,3223,3223,3188,3177,3194,3202,3189,3134,3094,3093,3095,3099,3075,3051,3064,3084,3104,3113,3094,3118,3129,3131,3091,3086,3093,3084,3072,3025,2993,3003,3012,3020,2999,2992,3017,3048,3076,3079,3087,3110,3130,3119,3089,3096,3104,3098,3119,3089,3096
3223,3223,3188,3177,3194,3202,3189,3134,3094,3093,3095,3099,3075,3051,3064,3084,3104,3113,3094,3118,3129,3131,3091,3086,3093,3084,3072,3025,2993,3003,3012,3020,2999,2992,3017,3048,3076,3079,3087,3110,3130,3119,3089,3096,3104,3098,3074,3030,3023,3038,3042,3036,3016,3025,3054,3081,3096,3103,3127,3143,3141,3096,3103,3127
3084,3104,3113,3094,3118,3129,3131,3091,3086,3093,3084,3072,3025,2993,3003,3012,3020,2999,2992,3017,3048,3076,3079,3087,3110,3130,3119,3089,3096,3104,3098,3074,3030,3023,3038,3042,3036,3016,3025,3054,3081,3096,3103,3127,3143,3141,3098,3090,3100,3095,3069,3012,2999,3012,3013,3001,2970,2978,3003,3038,3001,2970,2978,3003
3012,3020,2999,2992,3017,3048,3076,3079,3087,3110,3130,3119,3089,3096,3104,3098,3074,3030,3023,3038,3042,3036,3016,3025,3054,3081,3096,3103,3127,3143,3141,3098,3090,3100,3095,3069,3012,2999,3012,3013,3001,2970,2978,3003,3038,3029,3048,3071,3093,3090,3046,3046,3061,3059,3015,2957,2956,2958,2963,2928,2957,2956,2958,2963
3098,3074,3030,3023,3038,3042,3036,3016,3025,3054,3081,3096,3103,3127,3143,3141,3098,3090,3100,3095,3069,3012,2999,3012,3013,3001,2970,2978,3003,3038,3029,3048,3071,3093,3090,3046,3046,3061,3059,3015,2957,2956,2958,2963,2928,2940,2967,2990,2975,2974,3010,3035,3051,3023,3000,3009,3023,3027,2957,3000,3009,3023,3027,2957
3141,3098,3090,3100,3095,3069,3012,2999,3012,3013,3001,2970,2978,3003,3038,3029,3048,3071,3093,3090,3046,3046,3061,3059,3015,2957,2956,2958,2963,2928,2940,2967,2990,2975,2974,3010,3035,3051,3023,3000,3009,3023,3027,2957,2919,2928,2931,2931,2910,2941,2954,2950,2935,2967,3009,3046,3042,3014,3030,3009,3046,3042,3014,3030
3001,2970,2978,3003,3038,3029,3048,3071,3093,3090,3046,3046,3061,3059,3015,2957,2956,2958,2963,2928,2940,2967,2990,2975,2974,3010,3035,3051,3023,3000,3009,3023,3027,2957,2919,2928,2931,2931,2910,2941,2954,2950,2935,2967,3009,3046,3042,3014,3030,3054,3069,3037,3010,3018,3018,2981,2977,3002,3018,3016,2997,3020,3054,3018
2957,2956,2958,2963,2928,2940,2967,2990,2975,2974,3010,3035,3051,3023,3000,3009,3023,3027,2957,2919,2928,2931,2931,2910,2941,2954,2950,2935,2967,3009,3046,3042,3014,3030,3054,3069,3037,3010,3018,3018,2981,2977,3002,3018,3016,2997,3020,3054,3090,3104,3092,3110,3133,3156,3135,3119,3139,3154,3147,3096,3080,3087,3091,3147
3009,3023,3027,2957,2919,2928,2931,2931,2910,2941,2954,2950,2935,2967,3009,3046,3042,3014,3030,3054,3069,3037,3010,3018,3018,2981,2977,3002,3018,3016,2997,3020,3054,3090,3104,3092,3110,3133,3156,3135,3119,3139,3154,3147,3096,3080,3087,3091,3080,3077,3102,3129,3124,3121,3148,3176,3196,3177,3174,3194,3212,3211,3182,3174
3046,3042,3014,3030,3054,3069,3037,3010,3018,3018,2981,2977,3002,3018,3016,2997,3020,3054,3090,3104,3092,3110,3133,3156,3135,3119,3139,3154,3147,3096,3080,3087,3091,3080,3077,3102,3129,3124,3121,3148,3176,3196,3177,3174,3194,3212,3211,3182,3186,3216,3195,3174,3190,3204,3214,3183,3175,3194,3209,3214,3182,3187,3194,3209
2997,3020,3054,3090,3104,3092,3110,3133,3156,3135,3119,3139,3154,3147,3096,3080,3087,3091,3080,3077,3102,3129,3124,3121,3148,3176,3196,3177,3174,3194,3212,3211,3182,3186,3216,3195,3174,3190,3204,3214,3183,3175,3194,3209,3214,3182,3187,3201,3208,3194,3168,3181,3184,3156,3142,3154,3168,3166,3138,3140,3155,3165,3147,3138
3080,3087,3091,3080,3077,3102,3129,3124,3121,3148,3176,3196,3177,3174,3194,3212,3211,3182,3186,3216,3195,3174,3190,3204,3214,3183,3175,3194,3209,3214,3182,3187,3201,3208,3194,3168,3181,3184,3156,3142,3154,3168,3166,3138,3140,3155,3165,3147,3125,3135,3146,3149,3114,3110,3140,3134,3104,3114,3134,3147,3121,3102,3114,3134
3212,3211,3182,3186,3216,3195,3174,3190,3204,3214,3183,3175,3194,3209,3214,3182,3187,3201,3208,3194,3168,3181,3184,3156,3142,3154,3168,3166,3138,3140,3155,3165,3147,3125,3135,3146,3149,3114,3110,3140,3134,3104,3114,3134,3147,3121,3102,3116,3130,3125,3088,3091,3105,3114,3068,3082,3096,3100,3065,3066,3083,3096,3100,3065
3182,3187,3201,3208,3194,3168,3181,3184,3156,3142,3154,3168,3166,3138,3140,3155,3165,3147,3125,3135,3146,3149,3114,3110,3140,3134,3104,3114,3134,3147,3121,3102,3116,3130,3125,3088,3091,3105,3114,3068,3082,3096,3100,3065,3066,3083,3096,3081,3058,3074,3092,3101,3072,3068,3088,3103,3074,3087,3105,3118,3096,3074,3087,3105
3155,3165,3147,3125,3135,3146,3149,3114,3110,3140,3134,3104,3114,3134,3147,3121,3102,3116,3130,3125,3088,3091,3105,3114,3068,3082,3096,3100,3065,3066,3083,3096,3081,3058,3074,3092,3101,3072,3068,3088,3103,3074,3087,3105,3118,3096,3089,3110,3124,3129,3103,3111,3130,3144,3134,3122,3138,3154,3163,3132,3122,3138,3154,3163
3121,3102,3116,3130,3125,3088,3091,3105,3114,3068,3082,3096,3100,3065,3066,3083,3096,3081,3058,3074,3092,3101,3072,3068,3088,3103,3074,3087,3105,3118,3096,3089,3110,3124,3129,3103,3111,3130,3144,3134,3122,3138,3154,3163,3132,3151,3161,3162,3132,3141,3152,3160,3143,3120,3129,3137,3140,3100,3086,3129,3137,3140,3100,3086
3083,3096,3081,3058,3074,3092,3101,3072,3068,3088,3103,3074,3087,3105,3118,3096,3089,3110,3124,3129,3103,3111,3130,3144,3134,3122,3138,3154,3163,3132,3151,3161,3162,3132,3141,3152,3160,3143,3120,3129,3137,3140,3100,3086,3104,3091,3046,3048,3058,3061,3030,3002,3019,3029,3036,2995,2990,3009,3020,3036,2995,2990,3009,3020
3103,3074,3087,3105,3118,3096,3089,3110,3124,3129,3103,3111,3130,3144,3134,3122,3138,3154,3163,3132,3151,3161,3162,3132,3141,3152,3160,3143,3120,3129,3137,3140,3100,3086,3104,3091,3046,3048,3058,3061,3030,3002,3019,3029,3036,2995,2990,3009,3020,3021,2996,3019,3032,3026,3002,3022,3041,3056,3040,3031,3053,3070,3078,3040
3122,3138,3154,3163,3132,3151,3161,3162,3132,3141,3152,3160,3143,3120,3129,3137,3140,3100,3086,3104,3091,3046,3048,3058,3061,3030,3002,3019,3029,3036,2995,2990,3009,3020,3021,2996,3019,3032,3026,3002,3022,3041,3056,3040,3031,3053,3070,3078,3053,3053,3074,3088,3093,3072,3100,3114,3114,3093,3108,3126,3145,3147,3093,3108
3137,3140,3100,3086,3104,3091,3046,3048,3058,3061,3030,3002,3019,3029,3036,2995,2990,3009,3020,3021,2996,3019,3032,3026,3002,3022,3041,3056,3040,3031,3053,3070,3078,3053,3053,3074,3088,3093,3072,3100,3114,3114,3093,3108,3126,3145,3147,3136,3153,3163,3184,3149,3090,3053,3033,3022,2987,2963,2955,2958,2930,2916,2963,2955
2995,2990,3009,3020,3021,2996,3019,3032,3026,3002,3022,3041,3056,3040,3031,3053,3070,3078,3053,3053,3074,3088,3093,3072,3100,3114,3114,3093,3108,3126,3145,3147,3136,3153,3163,3184,3149,3090,3053,3033,3022,2987,2963,2955,2958,2930,2916,2915,2898,2871,2835,2841,2855,2868,2874,2859,2857,2857,2850,2822,2799,2813,2828,2850
3053,3070,3078,3053,3053,3074,3088,3093,3072,3100,3114,3114,3093,3108,3126,3145,3147,3136,3153,3163,3184,3149,3090,3053,3033,3022,2987,2963,2955,2958,2930,2916,2915,2898,2871,2835,2841,2855,2868,2874,2859,2857,2857,2850,2822,2799,2813,2828,2833,2807,2788,2797,2802,2817,2811,2837,2864,2872,2870,2847,2850,2859,2872,2870
3145,3147,3136,3153,3163,3184,3149,3090,3053,3033,3022,2987,2963,2955,2958,2930,2916,2915,2898,2871,2835,2841,2855,2868,2874,2859,2857,2857,2850,2822,2799,2813,2828,2833,2807,2788,2797,2802,2817,2811,2837,2864,2872,2870,2847,2850,2859,2871,2862,2871,2872,2867,2863,2850,2871,2892,2902,2912,2899,2901,2910,2911,2912,2899
2930,2916,2915,2898,2871,2835,2841,2855,2868,2874,2859,2857,2857,2850,2822,2799,2813,2828,2833,2807,2788,2797,2802,2817,2811,2837,2864,2872,2870,2847,2850,2859,2871,2862,2871,2872,2867,2863,2850,2871,2892,2902,2912,2899,2901,2910,2911,2893,2878,2888,2899,2904,2887,2872,2881,2890,2907,2907,2914,2934,2936,2913,2897,2914
2799,2813,2828,2833,2807,2788,2797,2802,2817,2811,2837,2864,2872,2870,2847,2850,2859,2871,2862,2871,2872,2867,2863,2850,2871,2892,2902,2912,2899,2901,2910,2911,2893,2878,2888,2899,2904,2887,2872,2881,2890,2907,2907,2914,2934,2936,2913,2897,2901,2904,2907,2890,2885,2890,2888,2888,2873,2884,2897,2905,2921,2899,2900,2897
2850,2859,2871,2862,2871,2872,2867,2863,2850,2871,2892,2902,2912,2899,2901,2910,2911,2893,2878,2888,2899,2904,2887,2872,2881,2890,2907,2907,2914,2934,2936,2913,2897,2901,2904,2907,2890,2885,2890,2888,2888,2873,2884,2897,2905,2921,2899,2900,2911,2902,2879,2885,2890,2895,2883,2862,2869,2878,2888,2883,2883,2905,2878,2888
2910,2911,2893,2878,2888,2899,2904,2887,2872,2881,2890,2907,2907,2914,2934,2936,2913,2897,2901,2904,2907,2890,2885,2890,2888,2888,2873,2884,2897,2905,2921,2899,2900,2911,2902,2879,2885,2890,2895,2883,2862,2869,2878,2888,2883,2883,2905,2913,2913,2877,2881,2880,2884,2874,2872,2874,2868,2867,2853,2904,3015,3057,2867,2853
2936,2913,2897,2901,2904,2907,2890,2885,2890,2888,2888,2873,2884,2897,2905,2921,2899,2900,2911,2902,2879,2885,2890,2895,2883,2862,2869,2878,2888,2883,2883,2905,2913,2913,2877,2881,2880,2884,2874,2872,2874,2868,2867,2853,2904,3015,3057,3088,3090,3104,3096,3081,3058,3047,3050,3047,3046,3023,3013,3024,3031,3046,3023,3013
2921,2899,2900,2911,2902,2879,2885,2890,2895,2883,2862,2869,2878,2888,2883,2883,2905,2913,2913,2877,2881,2880,2884,2874,2872,2874,2868,2867,2853,2904,3015,3057,3088,3090,3104,3096,3081,3058,3047,3050,3047,3046,3023,3013,3024,3031,3039,3026,3022,3027,3028,3024,3003,2985,2988,2989,2970,2954,2957,2960,2989,2970,2954,2957
2883,2905,2913,2913,2877,2881,2880,2884,2874,2872,2874,2868,2867,2853,2904,3015,3057,3088,3090,3104,3096,3081,3058,3047,3050,3047,3046,3023,3013,3024,3031,3039,3026,3022,3027,3028,3024,3003,2985,2988,2989,2970,2954,2957,2960,2968,2955,2944,2948,2949,2954,2952,2935,2929,2928,2930,2915,2901,2904,2901,2897,2915,2901,2904
3015,3057,3088,3090,3104,3096,3081,3058,3047,3050,3047,3046,3023,3013,3024,3031,3039,3026,3022,3027,3028,3024,3003,2985,2988,2989,2970,2954,2957,2960,2968,2955,2944,2948,2949,2954,2952,2935,2929,2928,2930,2915,2901,2904,2901,2897,2886,2878,2890,2897,2896,2893,2879,2885,2885,2878,2872,2859,2865,2866,2863,2872,2859,2865
3031,3039,3026,3022,3027,3028,3024,3003,2985,2988,2989,2970,2954,2957,2960,2968,2955,2944,2948,2949,2954,2952,2935,2929,2928,2930,2915,2901,2904,2901,2897,2886,2878,2890,2897,2896,2893,2879,2885,2885,2878,2872,2859,2865,2866,2863,2839,2837,2848,2854,2862,2845,2840,2851,2852,2853,2841,2829,2834,2840,2853,2841,2829,2834
2968,2955,2944,2948,2949,2954,2952,2935,2929,2928,2930,2915,2901,2904,2901,2897,2886,2878,2890,2897,2896,2893,2879,2885,2885,2878,2872,2859,2865,2866,2863,2839,2837,2848,2854,2862,2845,2840,2851,2852,2853,2841,2829,2834,2840,2844,2833,2816,2827,2819,2842,2868,2915,2962,2972,3001,3007,2998,2994,2979,3001,3007,2998,2994
2897,2886,2878,2890,2897,2896,2893,2879,2885,2885,2878,2872,2859,2865,2866,2863,2839,2837,2848,2854,2862,2845,2840,2851,2852,2853,2841,2829,2834,2840,2844,2833,2816,2827,2819,2842,2868,2915,2962,2972,3001,3007,2998,2994,2979,2971,2952,2949,2949,2950,2946,2942,2948,2946,2950,2955,2938,2924,2917,2950,2955,2938,2924,2917
2878,2872,2859,2865,2866,2863,2839,2837,2848,2854,2862,2845,2840,2851,2852,2853,2841,2829,2834,2840,2844,2833,2816,2827,2819,2842,2868,2915,2962,2972,3001,3007,2998,2994,2979,2971,2952,2949,2949,2950,2946,2942,2948,2946,2950,2955,2938,2924,2917,2923,2923,2908,2909,2912,2912,2917,2909,2916,2923,2923,2926,2908,2894,2923
2853,2841,2829,2834,2840,2844,2833,2816,2827,2819,2842,2868,2915,2962,2972,3001,3007,2998,2994,2979,2971,2952,2949,2949,2950,2946,2942,2948,2946,2950,2955,2938,2924,2917,2923,2923,2908,2909,2912,2912,2917,2909,2916,2923,2923,2926,2908,2894,2901,2903,2906,2896,2896,2895,2884,2881,2900,2902,2924,2947,2971,2982,2975,2924
3001,3007,2998,2994,2979,2971,2952,2949,2949,2950,2946,2942,2948,2946,2950,2955,2938,2924,2917,2923,2923,2908,2909,2912,2912,2917,2909,2916,2923,2923,2926,2908,2894,2901,2903,2906,2896,2896,2895,2884,2881,2900,2902,2924,2947,2971,2982,2975,2973,2989,3018,3048,3033,3016,3011,3010,3026,3033,3018,3044,3075,3086,3078,3018
2955,2938,2924,2917,2923,2923,2908,2909,2912,2912,2917,2909,2916,2923,2923,2926,2908,2894,2901,2903,2906,2896,2896,2895,2884,2881,2900,2902,2924,2947,2971,2982,2975,2973,2989,3018,3048,3033,3016,3011,3010,3026,3033,3018,3044,3075,3086,3078,3053,3036,3036,3036,3028,3006,3042,3081,3113,3135,3135,3117,3120,3089,3074,3135
2926,2908,2894,2901,2903,2906,2896,2896,2895,2884,2881,2900,2902,2924,2947,2971,2982,2975,2973,2989,3018,3048,3033,3016,3011,3010,3026,3033,3018,3044,3075,3086,3078,3053,3036,3036,3036,3028,3006,3042,3081,3113,3135,3135,3117,3120,3089,3074,3059,3020,3002,3002,2999,2999,2996,2975,2972,2967,2960,2967,2970,2946,2943,2960
3018,3048,3033,3016,3011,3010,3026,3033,3018,3044,3075,3086,3078,3053,3036,3036,3036,3028,3006,3042,3081,3113,3135,3135,3117,3120,3089,3074,3059,3020,3002,3002,2999,2999,2996,2975,2972,2967,2960,2967,2970,2946,2943,2938,2932,2935,2940,2919,2916,2904,2909,2894,2884,2892,2898,2900,2900,2878,2865,2898,2900,2900,2878,2865
3075,3086,3078,3053,3036,3036,3036,3028,3006,3042,3081,3113,3135,3135,3117,3120,3089,3074,3059,3020,3002,3002,2999,2999,2996,2975,2972,2967,2960,2967,2970,2946,2943,2938,2932,2935,2940,2919,2916,2904,2909,2894,2884,2892,2898,2900,2900,2878,2865,2862,2857,2856,2852,2832,2817,2820,2826,2849,2866,2887,2906,2927,2950,2990
3120,3089,3074,3059,3020,3002,3002,2999,2999,2996,2975,2972,2967,2960,2967,2970,2946,2943,2938,2932,2935,2940,2919,2916,2904,2909,2894,2884,2892,2898,2900,2900,2878,2865,2862,2857,2856,2852,2832,2817,2820,2826,2849,2866,2887,2906,2927,2950,2990,2990,2967,2945,2931,2921,2920,2914,2885,2893,2899,2905,2912,2894,2894,2899
2970,2946,2943,2938,2932,2935,2940,2919,2916,2904,2909,2894,2884,2892,2898,2900,2900,2878,2865,2862,2857,2856,2852,2832,2817,2820,2826,2849,2866,2887,2906,2927,2950,2990,2990,2967,2945,2931,2921,2920,2914,2885,2893,2899,2905,2912,2894,2894,2891,2879,2875,2901,2897,2904,2928,2953,2978,2996,2968,2967,2973,2965,2963,2968
2857,2856,2852,2832,2817,2820,2826,2849,2866,2887,2906,2927,2950,2990,2990,2967,2945,2931,2921,2920,2914,2885,2893,2899,2905,2912,2894,2894,2891,2879,2875,2901,2897,2904,2928,2953,2978,2996,2968,2967,2973,2965,2963,2949,2931,2941,2927,2932,2932,2913,2920,2930,2939,2931,2940,2939,2930,2921,2907,2940,2939,2930,2921,2907
2906,2927,2950,2990,2990,2967,2945,2931,2921,2920,2914,2885,2893,2899,2905,2912,2894,2894,2891,2879,2875,2901,2897,2904,2928,2953,2978,2996,2968,2967,2973,2965,2963,2949,2931,2941,2927,2932,2932,2913,2920,2930,2939,2931,2940,2939,2930,2921,2907,2891,2922,2934,2914,2909,2912,2904,2796,2741,2692,2646,2720,2781,2777,2692
2912,2894,2894,2891,2879,2875,2901,2897,2904,2928,2953,2978,2996,2968,2967,2973,2965,2963,2949,2931,2941,2927,2932,2932,2913,2920,2930,2939,2931,2940,2939,2930,2921,2907,2891,2922,2934,2914,2909,2912,2904,2796,2741,2692,2646,2720,2781,2777,2755,2740,2763,2765,2755,2755,2751,2691,2630,2652,2664,2736,2808,2865,2844,2664
2973,2965,2963,2949,2931,2941,2927,2932,2932,2913,2920,2930,2939,2931,2940,2939,2930,2921,2907,2891,2922,2934,2914,2909,2912,2904,2796,2741,2692,2646,2720,2781,2777,2755,2740,2763,2765,2755,2755,2751,2691,2630,2652,2664,2736,2808,2865,2844,2840,2839,2847,2851,2845,2849,2854,2807,2746,2693,2697,2884,2912,2835,2789,2697
2939,2930,2921,2907,2891,2922,2934,2914,2909,2912,2904,2796,2741,2692,2646,2720,2781,2777,2755,2740,2763,2765,2755,2755,2751,2691,2630,2652,2664,2736,2808,2865,2844,2840,2839,2847,2851,2845,2849,2854,2807,2746,2693,2697,2884,2912,2835,2789,2801,2796,2761,2723,2639,2761,2987,3091,3134,3134,3138,3133,3130,3136,3136,3138
2720,2781,2777,2755,2740,2763,2765,2755,2755,2751,2691,2630,2652,2664,2736,2808,2865,2844,2840,2839,2847,2851,2845,2849,2854,2807,2746,2693,2697,2884,2912,2835,2789,2801,2796,2761,2723,2639,2761,2987,3091,3134,3134,3138,3133,3130,3136,3136,3108,3096,3101,3107,3115,3119,3095,3069,3061,3054,3048,3049,3057,3063,3054,3048
